# Energy (eV), Intensity, Lineshape
2.859203270000000074e+00,3.460730912228686528e-56,1.210382958266792509e-56
2.859250472098298967e+00,3.543550650503753902e-56,1.239328518114494658e-56
2.859297674196597416e+00,3.628344270502002474e-56,1.268963460239057073e-56
2.859344876294896309e+00,3.715158622069795367e-56,1.299304135317825574e-56
2.859392078393194758e+00,3.804041662369810623e-56,1.330367280204347419e-56
2.859439280491493651e+00,3.895042481948458652e-56,1.362170027012764811e-56
2.859486482589792100e+00,3.988211331400796553e-56,1.394729912410264668e-56
2.859533684688090993e+00,4.083599648674418843e-56,1.428064887132058800e-56
2.859580886786389442e+00,4.181260086998794521e-56,1.462193325714145018e-56
2.859628088884688335e+00,4.281246543483030051e-56,1.497134036458846291e-56
2.859675290982986784e+00,4.383614188369355441e-56,1.532906271628667562e-56
2.859722493081285677e+00,4.488419494986322710e-56,1.569529737883815759e-56
2.859769695179584126e+00,4.595720270388329297e-56,1.607024606958684925e-56
2.859816897277883019e+00,4.705575686728851606e-56,1.645411526593836903e-56
2.859864099376181468e+00,4.818046313351082123e-56,1.684711631717757585e-56
2.859911301474480361e+00,4.933194149647848287e-56,1.724946555896488295e-56
2.859958503572778810e+00,5.051082658672475351e-56,1.766138443044699149e-56
2.860005705671077703e+00,5.171776801554840392e-56,1.808309959417134852e-56
2.860052907769376151e+00,5.295343072704845682e-56,1.851484305874191288e-56
2.860100109867675044e+00,5.421849535857647317e-56,1.895685230440585503e-56
2.860147311965973493e+00,5.551365860944472898e-56,1.940937041151437102e-56
2.860194514064272386e+00,5.683963361844553168e-56,1.987264619205135211e-56
2.860241716162570835e+00,5.819715035001123908e-56,2.034693432417004099e-56
2.860288918260869728e+00,5.958695598961237497e-56,2.083249548994609754e-56
2.860336120359168177e+00,6.100981534819214425e-56,2.132959651627628610e-56
2.860383322457467070e+00,6.246651127627414305e-56,2.183851051914493808e-56
2.860430524555765519e+00,6.395784508754423786e-56,2.235951705118833891e-56
2.860477726654064412e+00,6.548463699255049997e-56,2.289290225278162707e-56
2.860524928752362861e+00,6.704772654232295701e-56,2.343895900657865293e-56
2.860572130850661754e+00,6.864797308260043355e-56,2.399798709574446728e-56
2.860619332948960203e+00,7.028625621843143271e-56,2.457029336579873484e-56
2.860666535047259096e+00,7.196347628988119243e-56,2.515619189032542459e-56
2.860713737145557545e+00,7.368055485861403265e-56,2.575600414046777847e-56
2.860760939243856438e+00,7.543843520609757098e-56,2.637005915846890933e-56
2.860808141342154887e+00,7.723808284318416745e-56,2.699869373517223440e-56
2.860855343440453780e+00,7.908048603188159408e-56,2.764225259176498807e-56
2.860902545538752229e+00,8.096665631902061191e-56,2.830108856566218125e-56
2.860949747637051122e+00,8.289762908269204253e-56,2.897556280083556795e-56
2.860996949735349570e+00,8.487446409113898449e-56,2.966604494247717158e-56
2.861044151833648463e+00,8.689824607501889761e-56,3.037291333631661977e-56
2.861091353931947356e+00,8.897008531273292355e-56,3.109655523248599218e-56
2.861138556030245805e+00,9.109111822962189613e-56,3.183736699421101024e-56
2.861185758128544698e+00,9.326250801115323088e-56,3.259575431137149720e-56
2.861232960226843147e+00,9.548544523022924056e-56,3.337213241897611976e-56
2.861280162325142040e+00,9.776114848943634319e-56,3.416692632083724025e-56
2.861327364423440489e+00,1.000908650779644882e-55,3.498057101835073128e-56
2.861374566521739382e+00,1.024758716441892491e-55,3.581351174472693335e-56
2.861421768620037831e+00,1.049174748836120395e-55,3.666620420456576723e-56
2.861468970718336724e+00,1.074170122432091841e-55,3.753911481914251141e-56
2.861516172816635173e+00,1.099758526418377769e-55,3.843272097728066194e-56
2.861563374914934066e+00,1.125953972078504443e-55,3.934751129221367504e-56
2.861610577013232515e+00,1.152770800335087199e-55,4.028398586429171590e-56
2.861657779111531408e+00,1.180223689473972975e-55,4.124265654995269609e-56
2.861704981209829857e+00,1.208327663044634248e-55,4.222404723682575806e-56
2.861752183308128750e+00,1.237098097948744333e-55,4.322869412538312479e-56
2.861799385406427199e+00,1.266550732713199470e-55,4.425714601700937431e-56
2.861846587504726092e+00,1.296701675960568852e-55,4.530996460894071451e-56
2.861893789603024540e+00,1.327567415072341138e-55,4.638772479591176316e-56
2.861940991701323433e+00,1.359164825058793679e-55,4.749101497899221126e-56
2.861988193799621882e+00,1.391511177631042810e-55,4.862043738145718618e-56
2.862035395897920775e+00,1.424624150489124262e-55,4.977660837217458005e-56
2.862082597996219224e+00,1.458521836821953809e-55,5.096015879636331159e-56
2.862129800094518117e+00,1.493222755033269505e-55,5.217173431421446195e-56
2.862177002192816566e+00,1.528745858689469922e-55,5.341199574723166164e-56
2.862224204291115459e+00,1.565110546704279594e-55,5.468161943281131225e-56
2.862271406389413908e+00,1.602336673755186953e-55,5.598129758688536905e-56
2.862318608487712801e+00,1.640444560948486564e-55,5.731173867521353773e-56
2.862365810586011250e+00,1.679455006726400662e-55,5.867366779309617509e-56
2.862413012684310143e+00,1.719389298034701431e-55,6.006782705415018575e-56
2.862460214782608592e+00,1.760269221743980317e-55,6.149497598790783985e-56
2.862507416880907485e+00,1.802117076343186649e-55,6.295589194688756845e-56
2.862554618979205934e+00,1.844955683899099332e-55,6.445137052291477287e-56
2.862601821077504827e+00,1.888808402300533340e-55,6.598222597334797126e-56
2.862649023175803276e+00,1.933699137781362254e-55,6.754929165700269907e-56
2.862696225274102169e+00,1.979652357741140467e-55,6.915342048042800673e-56
2.862743427372400618e+00,2.026693103857831901e-55,7.079548535434255084e-56
2.862790629470699511e+00,2.074847005512357262e-55,7.247637966091760492e-56
2.862837831568998403e+00,2.124140293518879867e-55,7.419701773169351125e-56
2.862885033667296852e+00,2.174599814179066345e-55,7.595833533676511918e-56
2.862932235765595745e+00,2.226253043663470715e-55,7.776129018534501426e-56
2.862979437863894194e+00,2.279128102722458247e-55,7.960686243778771435e-56
2.863026639962193087e+00,2.333253771746819433e-55,8.149605522977706444e-56
2.863073842060491536e+00,2.388659506170495576e-55,8.342989520841102801e-56
2.863121044158790429e+00,2.445375452239668157e-55,8.540943308102924956e-56
2.863168246257088878e+00,2.503432463140441158e-55,8.743574417651087592e-56
2.863215448355387771e+00,2.562862115509601419e-55,8.950992901989588948e-56
2.863262650453686220e+00,2.623696726320722042e-55,9.163311392005881730e-56
2.863309852551985113e+00,2.685969370171805483e-55,9.380645157134771008e-56
2.863357054650283562e+00,2.749713896965371142e-55,9.603112166886946800e-56
2.863404256748582455e+00,2.814964950008874993e-55,9.830833153839371310e-56
2.863451458846880904e+00,2.881757984526442852e-55,1.006393167805587303e-55
2.863498660945179797e+00,2.950129286610121040e-55,1.030253419303624347e-55
2.863545863043478246e+00,3.020115992601413790e-55,1.054677011316147520e-55
2.863593065141777139e+00,3.091756108934081085e-55,1.079677188274307932e-55
2.863640267240075588e+00,3.165088532426238723e-55,1.105267504663458916e-55
2.863687469338374481e+00,3.240153071055258659e-55,1.131461832252198507e-55
2.863734671436672929e+00,3.316990465204251431e-55,1.158274367485375306e-55
2.863781873534971822e+00,3.395642409412417440e-55,1.185719639052303994e-55
2.863829075633270271e+00,3.476151574619923803e-55,1.213812515626915403e-55
2.863876277731569164e+00,3.558561630940199152e-55,1.242568213791302207e-55
2.863923479829867613e+00,3.642917270949185290e-55,1.272002306138987419e-55
2.863970681928166506e+00,3.729264233527670961e-55,1.302130729570508704e-55
2.864017884026464955e+00,3.817649328243983061e-55,1.332969793776855517e-55
2.864065086124763848e+00,3.908120460315887779e-55,1.364536189924296568e-55
2.864112288223062297e+00,4.000726656138372429e-55,1.396846999535930329e-55
2.864159490321361190e+00,4.095518089416945766e-55,1.429919703583764141e-55
2.864206692419659639e+00,4.192546107894025880e-55,1.463772191786967581e-55
2.864253894517958532e+00,4.291863260709126375e-55,1.498422772130481303e-55
2.864301096616256981e+00,4.393523326379297156e-55,1.533890180599234887e-55
2.864348298714555874e+00,4.497581341443287817e-55,1.570193591143117520e-55
2.864395500812854323e+00,4.604093629754839487e-55,1.607352625867585596e-55
2.864442702911153216e+00,4.713117832471058002e-55,1.645387365465918752e-55
2.864489905009451665e+00,4.824712938720047053e-55,1.684318359887579009e-55
2.864537107107750558e+00,4.938939316995479078e-55,1.724166639259282956e-55
2.864584309206049006e+00,5.055858747262908488e-55,1.764953725053460042e-55
2.864631511304347899e+00,5.175534453827407421e-55,1.806701641521369613e-55
2.864678713402646792e+00,5.298031138945700025e-55,1.849432927384981630e-55
2.864725915500945241e+00,5.423415017229284955e-55,1.893170647803809167e-55
2.864773117599244134e+00,5.551753850844753205e-55,1.937938406618835637e-55
2.864820319697542583e+00,5.683116985517714144e-55,1.983760358875741620e-55
2.864867521795841476e+00,5.817575387388874718e-55,2.030661223644341141e-55
2.864914723894139925e+00,5.955201680704272032e-55,2.078666297127914138e-55
2.864961925992438818e+00,6.096070186398987759e-55,2.127801466083105268e-55
2.865009128090737267e+00,6.240256961553606888e-55,2.178093221543122743e-55
2.865056330189036160e+00,6.387839839785420324e-55,2.229568672865832129e-55
2.865103532287334609e+00,6.538898472553812058e-55,2.282255562099541103e-55
2.865150734385633502e+00,6.693514371443695176e-55,2.336182278688722095e-55
2.865197936483931951e+00,6.851770951405358705e-55,2.391377874512085590e-55
2.865245138582230844e+00,7.013753575018817478e-55,2.447872079276726360e-55
2.865292340680529293e+00,7.179549597758708775e-55,2.505695316259949090e-55
2.865339542778828186e+00,7.349248414331085059e-55,2.564878718423621094e-55
2.865386744877126635e+00,7.522941506057603942e-55,2.625454144892473136e-55
2.865433946975425528e+00,7.700722489382700600e-55,2.687454197822673941e-55
2.865481149073723977e+00,7.882687165475062937e-55,2.750912239650631301e-55
2.865528351172022870e+00,8.068933571005330788e-55,2.815862410750560370e-55
2.865575553270321318e+00,8.259562030070138332e-55,2.882339647490348619e-55
2.865622755368620211e+00,8.454675207345065757e-55,2.950379700714477569e-55
2.865669957466918660e+00,8.654378162439111468e-55,3.020019154644404794e-55
2.865717159565217553e+00,8.858778405534082575e-55,3.091295446225448150e-55
2.865764361663516002e+00,9.067985954282478448e-55,3.164246884910908243e-55
2.865811563761814895e+00,9.282113392050393282e-55,3.238912672913568625e-55
2.865858765860113344e+00,9.501275927475038115e-55,3.315332925913910839e-55
2.865905967958412237e+00,9.725591455432815987e-55,3.393548694258466637e-55
2.865953170056710686e+00,9.955180619382659170e-55,3.473601984635942032e-55
2.866000372155009579e+00,1.019016687518400768e-54,3.555535782265720370e-55
2.866047574253308028e+00,1.043067655635501311e-54,3.639394073586694929e-55
2.866094776351606921e+00,1.067683894087527768e-54,3.725221869482750111e-55
2.866141978449905370e+00,1.092878631949398178e-54,3.813065229031184930e-55
2.866189180548204263e+00,1.118665406565449231e-54,3.902971283812768978e-55
2.866236382646502712e+00,1.145058070699574150e-54,3.994988262769518471e-55
2.866283584744801605e+00,1.172070799854462845e-54,4.089165517649983745e-55
2.866330786843100054e+00,1.199718099755865661e-54,4.185553549027755436e-55
2.866377988941398947e+00,1.228014814013729759e-54,4.284204032934456446e-55
2.866425191039697395e+00,1.256976131956175949e-54,4.385169848093091382e-55
2.866472393137996288e+00,1.286617596648498841e-54,4.488505103794170996e-55
2.866519595236295181e+00,1.316955113093336650e-54,4.594265168401112133e-55
2.866566797334593630e+00,1.348004956622787785e-54,4.702506698522416763e-55
2.866613999432892523e+00,1.379783781484325055e-54,4.813287668857021201e-55
2.866661201531190972e+00,1.412308629621950459e-54,4.926667402717780228e-55
2.866708403629489865e+00,1.445596939664487549e-54,5.042706603274481419e-55
2.866755605727788314e+00,1.479666556116217373e-54,5.161467385499615664e-55
2.866802807826087207e+00,1.514535738764842589e-54,5.283013308869066048e-55
2.866850009924385656e+00,1.550223172301204953e-54,5.407409410798204802e-55
2.866897212022684549e+00,1.586747976166114597e-54,5.534722240866860166e-55
2.866944414120982998e+00,1.624129714619167469e-54,5.665019895815218564e-55
2.866991616219281891e+00,1.662388407044908794e-54,5.798372055364116685e-55
2.867038818317580340e+00,1.701544538491412200e-54,5.934850018842448124e-55
2.867086020415879233e+00,1.741619070457387834e-54,6.074526742677782718e-55
2.867133222514177682e+00,1.782633451922128717e-54,6.217476878730262297e-55
2.867180424612476575e+00,1.824609630635994645e-54,6.363776813531384090e-55
2.867227626710775024e+00,1.867570064664642883e-54,6.513504708403919811e-55
2.867274828809073917e+00,1.911537734205877680e-54,6.666740540528642944e-55
2.867322030907372366e+00,1.956536153672364384e-54,6.823566144934242662e-55
2.867369233005671258e+00,2.002589384059422423e-54,6.984065257477293692e-55
2.867416435103969707e+00,2.049722045590758078e-54,7.148323558787292797e-55
2.867463637202268600e+00,2.097959330663035544e-54,7.316428719249517374e-55
2.867510839300567049e+00,2.147327017080864626e-54,7.488470444996236094e-55
2.867558041398865942e+00,2.197851481604639112e-54,7.664540524984361953e-55
2.867605243497164391e+00,2.249559713802402548e-54,7.844732879128686000e-55
2.867652445595463284e+00,2.302479330228636487e-54,8.029143607570374453e-55
2.867699647693761733e+00,2.356638588921777055e-54,8.217871041052064005e-55
2.867746849792060626e+00,2.412066404243323034e-54,8.411015792479106200e-55
2.867794051890359075e+00,2.468792362050815966e-54,8.608680809639960462e-55
2.867841253988657968e+00,2.526846735227904951e-54,8.810971429166484910e-55
2.867888456086956417e+00,2.586260499563930816e-54,9.017995431707660642e-55
2.867935658185255310e+00,2.647065350007331897e-54,9.229863098401294748e-55
2.867982860283553759e+00,2.709293717284403732e-54,9.446687268614079132e-55
2.868030062381852652e+00,2.772978784909598210e-54,9.668583399041096560e-55
2.868077264480151101e+00,2.838154506577703461e-54,9.895669624131024525e-55
2.868124466578449994e+00,2.904855623965904924e-54,1.012806681793441661e-54
2.868171668676748443e+00,2.973117684935576858e-54,1.036589865733959355e-54
2.868218870775047336e+00,3.042977062162811123e-54,1.060929168679704303e-54
2.868266072873346229e+00,3.114470972187617982e-54,1.085837538449712560e-54
2.868313274971644677e+00,3.187637494908129623e-54,1.111328223009267219e-54
2.868360477069943570e+00,3.262515593522659043e-54,1.137414777397626352e-54
2.868407679168242019e+00,3.339145134923854933e-54,1.164111070812679493e-54
2.868454881266540912e+00,3.417566910572161929e-54,1.191431293861999107e-54
2.868502083364839361e+00,3.497822657837131135e-54,1.219389965976277050e-54
2.868549285463138254e+00,3.579955081842047336e-54,1.248001942997486227e-54
2.868596487561436703e+00,3.664007877797593585e-54,1.277282424936777265e-54
2.868643689659735596e+00,3.750025753861594820e-54,1.307246963914993738e-54
2.868690891758034045e+00,3.838054454511623562e-54,1.337911472281187431e-54
2.868738093856332938e+00,3.928140784467117555e-54,1.369292230921879369e-54
2.868785295954631387e+00,4.020332633147821368e-54,1.401405897756456210e-54
2.868832498052930280e+00,4.114678999708442166e-54,1.434269516432578332e-54
2.868879700151228729e+00,4.211230018633408358e-54,1.467900525215964957e-54
2.868926902249527622e+00,4.310036985934534204e-54,1.502316766089450075e-54
2.868974104347826071e+00,4.411152385935199170e-54,1.537536494055578166e-54
2.869021306446124964e+00,4.514629918684742847e-54,1.573578386657937879e-54
2.869068508544423413e+00,4.620524527987019798e-54,1.610461553715623819e-54
2.869115710642722306e+00,4.728892430088374171e-54,1.648205547286566474e-54
2.869162912741020754e+00,4.839791143007274522e-54,1.686830371853523490e-54
2.869210114839319647e+00,4.953279516554368685e-54,1.726356494749691728e-54
2.869257316937618096e+00,5.069417763024904117e-54,1.766804856817629568e-54
2.869304519035916989e+00,5.188267488611638931e-54,1.808196883318223446e-54
2.869351721134215438e+00,5.309891725522105110e-54,1.850554495084059502e-54
2.869398923232514331e+00,5.434354964850299898e-54,1.893900119934610119e-54
2.869446125330812780e+00,5.561723190183842646e-54,1.938256704346607182e-54
2.869493327429111673e+00,5.692063912001474821e-54,1.983647725398689687e-54
2.869540529527410122e+00,5.825446202840011064e-54,2.030097202983020591e-54
2.869587731625709015e+00,5.961940733287084723e-54,2.077629712303468532e-54
2.869634933724007464e+00,6.101619808780023272e-54,2.126270396653478175e-54
2.869682135822306357e+00,6.244557407268594372e-54,2.176044980493708460e-54
2.869729337920604806e+00,6.390829217720425602e-54,2.226979782822026133e-54
2.869776540018903699e+00,6.540512679530165324e-54,2.279101730857093818e-54
2.869823742117202148e+00,6.693687022810780858e-54,2.332438374027994260e-54
2.869870944215501041e+00,6.850433309631003280e-54,2.387017898292153504e-54
2.869918146313799490e+00,7.010834476173382125e-54,2.442869140772633970e-54
2.869965348412098383e+00,7.174975375884076324e-54,2.500021604739536084e-54
2.870012550510396832e+00,7.342942823585135464e-54,2.558505474925286427e-54
2.870059752608695725e+00,7.514825640624310910e-54,2.618351633199910998e-54
2.870106954706994618e+00,7.690714701034044559e-54,2.679591674596384226e-54
2.870154156805293066e+00,7.870702978763770876e-54,2.742257923708349248e-54
2.870201358903591959e+00,8.054885595995491419e-54,2.806383451463639587e-54
2.870248561001890408e+00,8.243359872547843734e-54,2.872002092275385275e-54
2.870295763100189301e+00,8.436225376437728869e-54,2.939148461594707766e-54
2.870342965198487750e+00,8.633583975571298278e-54,3.007857973855147010e-54
2.870390167296786643e+00,8.835539890647583373e-54,3.078166860837781468e-54
2.870437369395085092e+00,9.042199749243518826e-54,3.150112190446109359e-54
2.870484571493383985e+00,9.253672641167439031e-54,3.223731885920978515e-54
2.870531773591682434e+00,9.470070175048250238e-54,3.299064745484094741e-54
2.870578975689981327e+00,9.691506536251549151e-54,3.376150462441838587e-54
2.870626177788279776e+00,9.918098546088330330e-54,3.455029645737394168e-54
2.870673379886578669e+00,1.014996572241251543e-53,3.535743840984634899e-54
2.870720581984877118e+00,1.038723034157019132e-53,3.618335551970801875e-54
2.870767784083176011e+00,1.063001750180009718e-53,3.702848262662581233e-54
2.870814986181474460e+00,1.087845518805154641e-53,3.789326459703760275e-54
2.870862188279773353e+00,1.113267433831709567e-53,3.877815655438277008e-54
2.870909390378071802e+00,1.139280891144840602e-53,3.968362411447642672e-54
2.870956592476370695e+00,1.165899595656046383e-53,4.061014362639278761e-54
2.871003794574669143e+00,1.193137568398123892e-53,4.155820241870783324e-54
2.871050996672968036e+00,1.221009153786666036e-53,4.252829905151793112e-54
2.871098198771266485e+00,1.249529027043286415e-53,4.352094357406663783e-54
2.871145400869565378e+00,1.278712201792656325e-53,4.453665778839974354e-54
2.871192602967863827e+00,1.308574037829120177e-53,4.557597551890066001e-54
2.871239805066162720e+00,1.339130249064939617e-53,4.663944288812482901e-54
2.871287007164461169e+00,1.370396911655856010e-53,4.772761859878268454e-54
2.871334209262760062e+00,1.402390472316710794e-53,4.884107422231377023e-54
2.871381411361058511e+00,1.435127756822623276e-53,4.998039449389486880e-54
2.871428613459357404e+00,1.468625978708897959e-53,5.114617761433981337e-54
2.871475815557655853e+00,1.502902748164933779e-53,5.233903555872582249e-54
2.871523017655954746e+00,1.537976081136066574e-53,5.355959439223049711e-54
2.871570219754253195e+00,1.573864408628545531e-53,5.480849459301174801e-54
2.871617421852552088e+00,1.610586586231630798e-53,5.608639138261674533e-54
2.871664623950850537e+00,1.648161903852335938e-53,5.739395506376321085e-54
2.871711826049149430e+00,1.686610095677499060e-53,5.873187136600358470e-54
